Gaussian broadening with full width at half max of   3.000   eV
        Energy(eV)              Intensity (arb. units)
   1000.0000000000000        2.9672128468811920E-041
   1000.0100000000000        3.2888335079627304E-041
   1000.0200000000000        3.6450905238302427E-041
   1000.0300000000000        4.0396895392950421E-041
   1000.0400000000000        4.4767300095140592E-041
   1000.0500000000000        4.9607467669606660E-041
   1000.0599999999999        5.4967559454340137E-041
   1000.0700000000001        6.0903057145946583E-041
   1000.0800000000000        6.7475323253215029E-041
   1000.0900000000000        7.4752220179963396E-041
   1000.1000000000000        8.2808794025433137E-041
   1000.1100000000000        9.1728029820803050E-041
   1000.1200000000000        1.0160168561121768E-040
   1000.1300000000000        1.1253121355622233E-040
   1000.1400000000000        1.2462877706242720E-040
   1000.1500000000000        1.3801837388914760E-040
   1000.1600000000000        1.5283707618931524E-040
   1000.1700000000000        1.6923639957365202E-040
   1000.1799999999999        1.8738381452657560E-040
   1000.1900000000001        2.0746441486936791E-040
   1000.2000000000000        2.2968275947044262E-040
   1000.2100000000000        2.5426490506644442E-040
   1000.2200000000000        2.8146064987779466E-040
   1000.2300000000000        3.1154600972341829E-040
   1000.2400000000000        3.4482595055261930E-040
   1000.2500000000000        3.8163740375610640E-040
   1000.2600000000000        4.2235259330838140E-040
   1000.2700000000000        4.6738270675634961E-040
   1000.2800000000000        5.1718194533160112E-040
   1000.2900000000000        5.7225199205644475E-040
   1000.3000000000000        6.3314694066937121E-040
   1000.3099999999999        7.0047873255100200E-040
   1000.3200000000001        7.7492315362682845E-040
   1000.3300000000000        8.5722644849574500E-040
   1000.3400000000000        9.4821261486132743E-040
   1000.3500000000000        1.0487914477085993E-039
   1000.3600000000000        1.1599674097377004E-039
   1000.3700000000000        1.2828494122949066E-039
   1000.3800000000000        1.4186615995732381E-039
   1000.3900000000000        1.5687552382356009E-039
   1000.4000000000000        1.7346218249359560E-039
   1000.4100000000000        1.9179075355738776E-039
   1000.4200000000000        2.1204291526121202E-039
   1000.4299999999999        2.3441916205377088E-039
   1000.4400000000001        2.5914073946709716E-039
   1000.4500000000000        2.8645177651443145E-039
   1000.4600000000000        3.1662163562305588E-039
   1000.4700000000000        3.4994750212271923E-039
   1000.4800000000000        3.8675723753334291E-039
   1000.4900000000000        4.2741252332419503E-039
   1000.5000000000000        4.7231232449478262E-039
   1000.5100000000000        5.2189670527101172E-039
   1000.5200000000000        5.7665103244564764E-039
   1000.5300000000000        6.3711060544988106E-039
   1000.5400000000000        7.0386575615396929E-039
   1000.5500000000000        7.7756746569395105E-039
   1000.5599999999999        8.5893355034772839E-039
   1000.5700000000001        9.4875547367886017E-039
   1000.5800000000000        1.0479058478683096E-038
   1000.5900000000000        1.1573466934501168E-038
   1000.6000000000000        1.2781385335259829E-038
   1000.6100000000000        1.4114504061453404E-038
   1000.6200000000000        1.5585708868412858E-038
   1000.6300000000000        1.7209202224660208E-038
   1000.6400000000000        1.9000636875169012E-038
   1000.6500000000000        2.0977262851833008E-038
   1000.6600000000000        2.3158089274708913E-038
   1000.6700000000000        2.5564062420786010E-038
   1000.6799999999999        2.8218261683351155E-038
   1000.6900000000001        3.1146115205702426E-038
   1000.7000000000000        3.4375637149199355E-038
   1000.7100000000000        3.7937688750105012E-038
   1000.7200000000000        4.1866265531279510E-038
   1000.7300000000000        4.6198813269561386E-038
   1000.7400000000000        5.0976575575489468E-038
   1000.7500000000000        5.6244976223818855E-038
   1000.7600000000000        6.2054039682413516E-038
   1000.7700000000000        6.8458853626382590E-038
   1000.7800000000000        7.5520077596840379E-038
   1000.7900000000000        8.3304502372420686E-038
   1000.8000000000000        9.1885665070357445E-038
   1000.8099999999999        1.0134452548628387E-037
   1000.8200000000001        1.1177020972233574E-037
   1000.8300000000000        1.2326082774510069E-037
   1000.8400000000000        1.3592437216799248E-037
   1000.8500000000000        1.4987970626209268E-037
   1000.8600000000000        1.6525764998654128E-037
   1000.8700000000000        1.8220217368596415E-037
   1000.8800000000000        2.0087171004535060E-037
   1000.8900000000000        2.2144059592594697E-037
   1000.9000000000000        2.4410065683915357E-037
   1000.9100000000000        2.6906294805818291E-037
   1000.9200000000000        2.9655966773048115E-037
   1000.9299999999999        3.2684625884829240E-037
   1000.9400000000001        3.6020371857423461E-037
   1000.9500000000000        3.9694113521270118E-037
   1000.9600000000000        4.3739847509607564E-037
   1000.9700000000000        4.8194964380105460E-037
   1000.9800000000000        5.3100584849081681E-037
   1000.9900000000000        5.8501929076615713E-037
   1001.0000000000000        6.4448722225518771E-037
   1001.0100000000000        7.0995639828845454E-037
   1001.0200000000000        7.8202796842218349E-037
   1001.0300000000000        8.6136284631633605E-037
   1001.0400000000000        9.4868760557601509E-037
   1001.0500000000000        1.0448009526598349E-036
   1001.0599999999999        1.1505808328831768E-036
   1001.0700000000001        1.2669922309408488E-036
   1001.0800000000000        1.3950957332747093E-036
   1001.0900000000000        1.5360569261135257E-036
   1001.1000000000000        1.6911567100585550E-036
   1001.1100000000000        1.8618026198999364E-036
   1001.1200000000000        2.0495412468292399E-036
   1001.1300000000000        2.2560718695377927E-036
   1001.1400000000000        2.4832614108904204E-036
   1001.1500000000000        2.7331608480341567E-036
   1001.1600000000000        3.0080232160317621E-036
   1001.1700000000000        3.3103233585008124E-036
   1001.1799999999999        3.6427795933964248E-036
   1001.1900000000001        4.0083774781302580E-036
   1001.2000000000000        4.4103958757508623E-036
   1001.2100000000000        4.8524355432287399E-036
   1001.2200000000000        5.3384504837849307E-036
   1001.2300000000000        5.8727823283771074E-036
   1001.2400000000000        6.4601980365733758E-036
   1001.2500000000000        7.1059312346511665E-036
   1001.2600000000000        7.8157275389297291E-036
   1001.2700000000000        8.5958942453625122E-036
   1001.2800000000000        9.4533548025354320E-036
   1001.2900000000000        1.0395708524733833E-035
   1001.3000000000000        1.1431296044969405E-035
   1001.3099999999999        1.2569271055138431E-035
   1001.3200000000001        1.3819678932218295E-035
   1001.3300000000000        1.5193542905866404E-035
   1001.3400000000000        1.6702958484944874E-035
   1001.3500000000000        1.8361196927648644E-035
   1001.3600000000000        2.0182818614359696E-035
   1001.3700000000000        2.2183797262954519E-035
   1001.3800000000000        2.4381656014792899E-035
   1001.3900000000000        2.6795616516292732E-035
   1001.4000000000000        2.9446762226665330E-035
   1001.4100000000000        3.2358217297907968E-035
   1001.4200000000000        3.5555342499438153E-035
   1001.4299999999999        3.9065949797731593E-035
   1001.4400000000001        4.2920537352246923E-035
   1001.4500000000000        4.7152546853405365E-035
   1001.4600000000000        5.1798645309473417E-035
   1001.4700000000000        5.6899033584467593E-035
   1001.4800000000000        6.2497784205792022E-035
   1001.4900000000000        6.8643211194338162E-035
   1001.5000000000000        7.5388274926779621E-035
   1001.5100000000000        8.2791025320146100E-035
   1001.5200000000000        9.0915086935036367E-035
   1001.5300000000000        9.9830189928379737E-035
   1001.5400000000000        1.0961275115205497E-034
   1001.5500000000000        1.2034651009268767E-034
   1001.5599999999999        1.3212322478375700E-034
   1001.5700000000001        1.4504343329711550E-034
   1001.5800000000000        1.5921728693956299E-034
   1001.5900000000000        1.7476546185054412E-034
   1001.6000000000000        1.9182015631125008E-034
   1001.6100000000000        2.1052618175654985E-034
   1001.6200000000000        2.3104215621637269E-034
   1001.6300000000000        2.5354180971966016E-034
   1001.6400000000000        2.7821541207326006E-034
   1001.6500000000000        3.0527133438788718E-034
   1001.6600000000000        3.3493775677045268E-034
   1001.6700000000000        3.6746453574525895E-034
   1001.6799999999999        4.0312524621337137E-034
   1001.6900000000001        4.4221941412100429E-034
   1001.7000000000000        4.8507495748900034E-034
   1001.7100000000000        5.3205085508474678E-034
   1001.7200000000000        5.8354006376925222E-034
   1001.7300000000000        6.3997270749476479E-034
   1001.7400000000000        7.0181956302170343E-034
   1001.7500000000000        7.6959586971953763E-034
   1001.7600000000000        8.4386549331640430E-034
   1001.7700000000000        9.2524547618983034E-034
   1001.7800000000000        1.0144110097642723E-033
   1001.7900000000000        1.1121008678240834E-033
   1001.8000000000000        1.2191233430862635E-033
   1001.8099999999999        1.3363627332314229E-033
   1001.8200000000001        1.4647864267957540E-033
   1001.8300000000000        1.6054526438968717E-033
   1001.8400000000000        1.7595188917907152E-033
   1001.8500000000000        1.9282512006483528E-033
   1001.8600000000000        2.1130342109234598E-033
   1001.8700000000000        2.3153821901163558E-033
   1001.8800000000000        2.5369510637943654E-033
   1001.8900000000000        2.7795515534041255E-033
   1001.9000000000000        3.0451635217753458E-033
   1001.9100000000000        3.3359516363281137E-033
   1001.9200000000000        3.6542824699260397E-033
   1001.9299999999999        4.0027431701314616E-033
   1001.9400000000001        4.3841618394064098E-033
   1001.9500000000000        4.8016297816058277E-033
   1001.9600000000000        5.2585257841781757E-033
   1001.9700000000000        5.7585426205613805E-033
   1001.9800000000000        6.3057159739902817E-033
   1001.9900000000000        6.9044560018956403E-033
   1002.0000000000000        7.5595817797629606E-033
   1002.0100000000000        8.2763588847183157E-033
   1002.0200000000000        9.0605404024132398E-033
   1002.0300000000000        9.9184116661489272E-033
   1002.0400000000000        1.0856839064796831E-032
   1002.0500000000000        1.1883323286140572E-032
   1002.0599999999999        1.3006057394974274E-032
   1002.0700000000001        1.4233990180934460E-032
   1002.0800000000000        1.5576895249689204E-032
   1002.0900000000000        1.7045446373589161E-032
   1002.1000000000000        1.8651299663295489E-032
   1002.1100000000000        2.0407183172315281E-032
   1002.1200000000000        2.2326994600434660E-032
   1002.1300000000000        2.4425907821244338E-032
   1002.1400000000000        2.6720489023249394E-032
   1002.1500000000000        2.9228823324015203E-032
   1002.1600000000000        3.1970652792893019E-032
   1002.1700000000000        3.4967526900641384E-032
   1002.1799999999999        3.8242966504264864E-032
   1002.1900000000001        4.1822642573340076E-032
   1002.2000000000000        4.5734570970251782E-032
   1002.2100000000000        5.0009324713383694E-032
   1002.2200000000000        5.4680265276758111E-032
   1002.2300000000000        5.9783794617849898E-032
   1002.2400000000000        6.5359629773248143E-032
   1002.2500000000000        7.1451102023828133E-032
   1002.2600000000000        7.8105482806868725E-032
   1002.2700000000000        8.5374338743616610E-032
   1002.2800000000000        9.3313918358487575E-032
   1002.2900000000000        1.0198557329180662E-031
   1002.3000000000000        1.1145621705328146E-031
   1002.3099999999999        1.2179882462990496E-031
   1002.3200000000001        1.3309297655179645E-031
   1002.3300000000000        1.4542545133318667E-031
   1002.3400000000000        1.5889087055038255E-031
   1002.3500000000000        1.7359240118548203E-031
   1002.3600000000000        1.8964252027242275E-031
   1002.3700000000000        2.0716384731766719E-031
   1002.3800000000000        2.2629005044458809E-031
   1002.3900000000000        2.4716683272754366E-031
   1002.4000000000000        2.6995300574305019E-031
   1002.4100000000000        2.9482165797506181E-031
   1002.4200000000000        3.2196142637360652E-031
   1002.4299999999999        3.5157788008458818E-031
   1002.4400000000001        3.8389502614966749E-031
   1002.4500000000000        4.1915694781957879E-031
   1002.4600000000000        4.5762958705205546E-031
   1002.4700000000000        4.9960268375093135E-031
   1002.4800000000000        5.4539188539966384E-031
   1002.4900000000000        5.9534104191109535E-031
   1002.5000000000000        6.4982470179442622E-031
   1002.5100000000000        7.0925082712541286E-031
   1002.5200000000000        7.7406374630911186E-031
   1002.5300000000000        8.4474736525578859E-031
   1002.5400000000000        9.2182865936037397E-031
   1002.5500000000000        1.0058814705963354E-030
   1002.5599999999999        1.0975306361176098E-030
   1002.5700000000001        1.1974564770235717E-030
   1002.5800000000000        1.3063996783848304E-030
   1002.5900000000000        1.4251665943106001E-030
   1002.6000000000000        1.5546350146821996E-030
   1002.6100000000000        1.6957604333434772E-030
   1002.6200000000000        1.8495828609071404E-030
   1002.6300000000000        2.0172342290208615E-030
   1002.6400000000000        2.1999464369228166E-030
   1002.6500000000000        2.3990600954398319E-030
   1002.6600000000000        2.6160340282670833E-030
   1002.6700000000000        2.8524555954501500E-030
   1002.6799999999999        3.1100519094963999E-030
   1002.6900000000001        3.3907020205162535E-030
   1002.7000000000000        3.6964501532418652E-030
   1002.7100000000000        4.0295200858510055E-030
   1002.7200000000000        4.3923307680106809E-030
   1002.7300000000000        4.7875132839007616E-030
   1002.7400000000000        5.2179292748348331E-030
   1002.7500000000000        5.6866909457843659E-030
   1002.7600000000000        6.1971827905841753E-030
   1002.7700000000000        6.7530851819431583E-030
   1002.7800000000000        7.3583999846771886E-030
   1002.7900000000000        8.0174783638946406E-030
   1002.8000000000000        8.7350509742884772E-030
   1002.8099999999999        9.5162607323038205E-030
   1002.8200000000001        1.0366698389881707E-029
   1002.8300000000000        1.1292441146721127E-029
   1002.8400000000000        1.2300094558047741E-029
   1002.8500000000000        1.3396838016014082E-029
   1002.8600000000000        1.4590474106441818E-029
   1002.8700000000000        1.5889482167595884E-029
   1002.8800000000000        1.7303076404995442E-029
   1002.8900000000000        1.8841268945758144E-029
   1002.9000000000000        2.0514938247906823E-029
   1002.9100000000000        2.2335903314622864E-029
   1002.9200000000000        2.4317004200841584E-029
   1002.9299999999999        2.6472189340053438E-029
   1002.9400000000001        2.8816610263009959E-029
   1002.9500000000000        3.1366724327233403E-029
   1002.9600000000000        3.4140406128077421E-029
   1002.9700000000000        3.7157068316629963E-029
   1002.9800000000000        4.0437792610695611E-029
   1002.9900000000000        4.4005471849467675E-029
   1003.0000000000000        4.7884964012918279E-029
   1003.0100000000000        5.2103259202862202E-029
   1003.0200000000000        5.6689660664812693E-029
   1003.0300000000000        6.1675981018591511E-029
   1003.0400000000000        6.7096754961735614E-029
   1003.0500000000000        7.2989469813642978E-029
   1003.0599999999999        7.9394815380717823E-029
   1003.0700000000001        8.6356954744336241E-029
   1003.0800000000000        9.3923817704171170E-029
   1003.0900000000000        1.0214741875304578E-028
   1003.1000000000000        1.1108420161016590E-028
   1003.1100000000000        1.2079541250813733E-028
   1003.1200000000000        1.3134750460684094E-028
   1003.1300000000000        1.4281257610146523E-028
   1003.1400000000000        1.5526884480129473E-028
   1003.1500000000000        1.6880116218206984E-028
   1003.1600000000000        1.8350157015917232E-028
   1003.1700000000000        1.9946990409303513E-028
   1003.1799999999999        2.1681444582346397E-028
   1003.1900000000001        2.3565263083809453E-028
   1003.2000000000000        2.5611181401161073E-028
   1003.2100000000000        2.7833009871664983E-028
   1003.2200000000000        3.0245723448823960E-028
   1003.2300000000000        3.2865558885070163E-028
   1003.2400000000000        3.5710119936458761E-028
   1003.2500000000000        3.8798491244207405E-028
   1003.2600000000000        4.2151361600735129E-028
   1003.2700000000000        4.5791157364904607E-028
   1003.2800000000000        4.9742186852773728E-028
   1003.2900000000000        5.4030796596644672E-028
   1003.3000000000000        5.8685540437003279E-028
   1003.3099999999999        6.3737362489402731E-028
   1003.3200000000001        6.9219795112075796E-028
   1003.3300000000000        7.5169173089857914E-028
   1003.3400000000000        8.1624865348760834E-028
   1003.3500000000000        8.8629525618493313E-028
   1003.3600000000000        9.6229363575801906E-028
   1003.3700000000000        1.0447443812267353E-027
   1003.3800000000000        1.1341897458589153E-027
   1003.3900000000000        1.2312170776690457E-027
   1003.4000000000000        1.3364625292465476E-027
   1003.4100000000000        1.4506150693981642E-027
   1003.4200000000000        1.5744208208780635E-027
   1003.4299999999999        1.7086877504074529E-027
   1003.4400000000001        1.8542907392686395E-027
   1003.4500000000000        2.0121770649895423E-027
   1003.4600000000000        2.1833723270898171E-027
   1003.4700000000000        2.3689868524102934E-027
   1003.4800000000000        2.5702226184181064E-027
   1003.4900000000000        2.7883807358781064E-027
   1003.5000000000000        3.0248695355622083E-027
   1003.5100000000000        3.2812133071910086E-027
   1003.5200000000000        3.5590617426011190E-027
   1003.5300000000000        3.8602001392268470E-027
   1003.5400000000000        4.1865604243974083E-027
   1003.5500000000000        4.5402330657080658E-027
   1003.5599999999999        4.9234799378481913E-027
   1003.5700000000001        5.3387482217978083E-027
   1003.5800000000000        5.7886854182208763E-027
   1003.5900000000000        6.2761555633958150E-027
   1003.6000000000000        6.8042567427657297E-027
   1003.6100000000000        7.3763400047954616E-027
   1003.6200000000000        7.9960297857417076E-027
   1003.6300000000000        8.6672459646073428E-027
   1003.6400000000000        9.3942276768473440E-027
   1003.6500000000000        1.0181559025406264E-026
   1003.6600000000000        1.1034196838453397E-026
   1003.6700000000000        1.1957500634797690E-026
   1003.6799999999999        1.2957264970464569E-026
   1003.6900000000001        1.4039754353398706E-026
   1003.7000000000000        1.5211740927661785E-026
   1003.7100000000000        1.6480545144360910E-026
   1003.7200000000000        1.7854079652912110E-026
   1003.7300000000000        1.9340896664750223E-026
   1003.7400000000000        2.0950239060806496E-026
