Gaussian broadening with full width at half max of   3.000   eV
        Energy(eV)              Intensity (arb. units)
   1000.0000000000000        5.1880318150711453E-036
   1000.0100000000000        5.7154720592744671E-036
   1000.0200000000000        6.2961464762539106E-036
   1000.0300000000000        6.9353883077432056E-036
   1000.0400000000000        7.6390610807084496E-036
   1000.0500000000000        8.4136109283650477E-036
   1000.0599999999999        9.2661240329469222E-036
   1000.0700000000001        1.0204389687590527E-035
   1000.0800000000000        1.1236969522512768E-035
   1000.0900000000000        1.2373273493366868E-035
   1000.1000000000000        1.3623643286762974E-035
   1000.1100000000000        1.4999443861271345E-035
   1000.1200000000000        1.6513163910971656E-035
   1000.1300000000000        1.8178526114200747E-035
   1000.1400000000000        2.0010608112867603E-035
   1000.1500000000000        2.2025975258262565E-035
   1000.1600000000000        2.4242826258481073E-035
   1000.1700000000000        2.6681152971172562E-035
   1000.1799999999999        2.9362915704212265E-035
   1000.1900000000001        3.2312235517108244E-035
   1000.2000000000000        3.5555605158187455E-035
   1000.2100000000000        3.9122120429321138E-035
   1000.2200000000000        4.3043733939466891E-035
   1000.2300000000000        4.7355533396370384E-035
   1000.2400000000000        5.2096046789540968E-035
   1000.2500000000000        5.7307577041676647E-035
   1000.2600000000000        6.3036568950571194E-035
   1000.2700000000000        6.9334011511491790E-035
   1000.2800000000000        7.6255879003247026E-035
   1000.2900000000000        8.3863614541907382E-035
   1000.3000000000000        9.2224660157102607E-035
   1000.3099999999999        1.0141303782967489E-034
   1000.3200000000001        1.1150998634954934E-034
   1000.3300000000000        1.2260465931108953E-034
   1000.3400000000000        1.3479489006806915E-034
   1000.3500000000000        1.4818803001565757E-034
   1000.3600000000000        1.6290186717163414E-034
   1000.3700000000000        1.7906563268358349E-034
   1000.3800000000000        1.9682110360794468E-034
   1000.3900000000000        2.1632381109201852E-034
   1000.4000000000000        2.3774436394870679E-034
   1000.4100000000000        2.6126989855233944E-034
   1000.4200000000000        2.8710566701010807E-034
   1000.4299999999999        3.1547677668508104E-034
   1000.4400000000001        3.4663009537314306E-034
   1000.4500000000000        3.8083633777318933E-034
   1000.4600000000000        4.1839235036195456E-034
   1000.4700000000000        4.5962361337196527E-034
   1000.4800000000000        5.0488698033218380E-034
   1000.4900000000000        5.5457367753347046E-034
   1000.5000000000000        6.0911258787083075E-034
   1000.5100000000000        6.6897384579383444E-034
   1000.5200000000000        7.3467277258773489E-034
   1000.5300000000000        8.0677418392856208E-034
   1000.5400000000000        8.8589710462715808E-034
   1000.5500000000000        9.7271992872347165E-034
   1000.5599999999999        1.0679860666369466E-033
   1000.5700000000001        1.1725101249517902E-033
   1000.5800000000000        1.2871846686344193E-033
   1000.5900000000000        1.4129876201219383E-033
   1000.6000000000000        1.5509903547188252E-033
   1000.6100000000000        1.7023665572819649E-033
   1000.6200000000000        1.8684019111580707E-033
   1000.6300000000000        2.0505046969013628E-033
   1000.6400000000000        2.2502173854576021E-033
   1000.6500000000000        2.4692293183119529E-033
   1000.6600000000000        2.7093905756259182E-033
   1000.6700000000000        2.9727271426935360E-033
   1000.6799999999999        3.2614574952021824E-033
   1000.6900000000001        3.5780107348685842E-033
   1000.7000000000000        3.9250464190848133E-033
   1000.7100000000000        4.3054762414778700E-033
   1000.7200000000000        4.7224877345526176E-033
   1000.7300000000000        5.1795701814119508E-033
   1000.7400000000000        5.6805429406010920E-033
   1000.7500000000000        6.2295864068289605E-033
   1000.7600000000000        6.8312758506903108E-033
   1000.7700000000000        7.4906184027343847E-033
   1000.7800000000000        8.2130934714616782E-033
   1000.7900000000000        9.0046969112525226E-033
   1000.8000000000000        9.8719892850543841E-033
   1000.8099999999999        1.0822148598064247E-032
   1000.8200000000001        1.1863027912920668E-032
   1000.8300000000000        1.3003218294168483E-032
   1000.8400000000000        1.4252117570730374E-032
   1000.8500000000000        1.5620005449075499E-032
   1000.8600000000000        1.7118125558554041E-032
   1000.8700000000000        1.8758775062846156E-032
   1000.8800000000000        2.0555402528995991E-032
   1000.8900000000000        2.2522714808117120E-032
   1000.9000000000000        2.4676793750062051E-032
   1000.9100000000000        2.7035223648704250E-032
   1000.9200000000000        2.9617230395473028E-032
   1000.9299999999999        3.2443833407017613E-032
   1000.9400000000001        3.5538011489063182E-032
   1000.9500000000000        3.8924883902970568E-032
   1000.9600000000000        4.2631908016348526E-032
   1000.9700000000000        4.6689095042057570E-032
   1000.9800000000000        5.1129245506490231E-032
   1000.9900000000000        5.5988206234638312E-032
   1001.0000000000000        6.1305150800194774E-032
   1001.0100000000000        6.7122885563608746E-032
   1001.0200000000000        7.3488183611294165E-032
   1001.0300000000000        8.0452149116357571E-032
   1001.0400000000000        8.8070614866676592E-032
   1001.0500000000000        9.6404575951733876E-032
   1001.0599999999999        1.0552066286677107E-031
   1001.0700000000001        1.1549165758392313E-031
   1001.0800000000000        1.2639705645565685E-031
   1001.0900000000000        1.3832368416294258E-031
   1001.1000000000000        1.5136636329144539E-031
   1001.1100000000000        1.6562864453110752E-031
   1001.1200000000000        1.8122360293603327E-031
   1001.1300000000000        1.9827470616551833E-031
   1001.1400000000000        2.1691676115247562E-031
   1001.1500000000000        2.3729694621726905E-031
   1001.1600000000000        2.5957593626693617E-031
   1001.1700000000000        2.8392912939637350E-031
   1001.1799999999999        3.1054798394383550E-031
   1001.1900000000001        3.3964147585391501E-031
   1001.2000000000000        3.7143768706898167E-031
   1001.2100000000000        4.0618553662388384E-031
   1001.2200000000000        4.4415666713610306E-031
   1001.2300000000000        4.8564750051425988E-031
   1001.2400000000000        5.3098147791779334E-031
   1001.2500000000000        5.8051150032568527E-031
   1001.2600000000000        6.3462258750983536E-031
   1001.2700000000000        6.9373477477171992E-031
   1001.2800000000000        7.5830626850053356E-031
   1001.2900000000000        8.2883688345705548E-031
   1001.3000000000000        9.0587178669548839E-031
   1001.3099999999999        9.9000557521559739E-031
   1001.3200000000001        1.0818867168099478E-030
   1001.3300000000000        1.1822223861380537E-030
   1001.3400000000000        1.2917837308804595E-030
   1001.3500000000000        1.4114116058291363E-030
   1001.3600000000000        1.5420228161097280E-030
   1001.3700000000000        1.6846169142977714E-030
   1001.3800000000000        1.8402836000952507E-030
   1001.3900000000000        2.0102107754666871E-030
   1001.4000000000000        2.1956933127307794E-030
   1001.4100000000000        2.3981425980975691E-030
   1001.4200000000000        2.6190969185633191E-030
   1001.4299999999999        2.8602327659630925E-030
   1001.4400000000001        3.1233771383776952E-030
   1001.4500000000000        3.4105209260116155E-030
   1001.4600000000000        3.7238334762582541E-030
   1001.4700000000000        4.0656784407449658E-030
   1001.4800000000000        4.4386310161350904E-030
   1001.4900000000000        4.8454967000416258E-030
   1001.5000000000000        5.2893316938911974E-030
   1001.5100000000000        5.7734650959280033E-030
   1001.5200000000000        6.3015230398707673E-030
   1001.5300000000000        6.8774549481088884E-030
   1001.5400000000000        7.5055620828323892E-030
   1001.5500000000000        8.1905285942363236E-030
   1001.5599999999999        8.9374552820181104E-030
   1001.5700000000001        9.7518963049315903E-030
   1001.5800000000000        1.0639899093191168E-029
   1001.5900000000000        1.1608047740527935E-029
   1001.6000000000000        1.2663510176021793E-029
   1001.6100000000000        1.3814089441809414E-029
   1001.6200000000000        1.5068279430395642E-029
   1001.6300000000000        1.6435325465527442E-029
   1001.6400000000000        1.7925290143297471E-029
   1001.6500000000000        1.9549124885611786E-029
   1001.6600000000000        2.1318747696619599E-029
   1001.6700000000000        2.3247127654396353E-029
   1001.6799999999999        2.5348376715374536E-029
   1001.6900000000001        2.7637849458041319E-029
   1001.7000000000000        3.0132251445345305E-029
   1001.7100000000000        3.2849756943381697E-029
   1001.7200000000000        3.5810136795388225E-029
   1001.7300000000000        3.9034897318614945E-029
   1001.7400000000000        4.2547431164348662E-029
   1001.7500000000000        4.6373181160950714E-029
   1001.7600000000000        5.0539818245759083E-029
   1001.7700000000000        5.5077434684897750E-029
   1001.7800000000000        6.0018753881017087E-029
   1001.7900000000000        6.5399358178342435E-029
   1001.8000000000000        7.1257936192908467E-029
   1001.8099999999999        7.7636551324158838E-029
   1001.8200000000001        8.4580933243192923E-029
   1001.8300000000000        9.2140794302854790E-029
   1001.8400000000000        1.0037017297958576E-028
   1001.8500000000000        1.0932780663068106E-028
   1001.8600000000000        1.1907753604445033E-028
   1001.8700000000000        1.2968874446610460E-028
   1001.8800000000000        1.4123683400673427E-028
   1001.8900000000000        1.5380374258521433E-028
   1001.9000000000000        1.6747850481540050E-028
   1001.9100000000000        1.8235786053513554E-028
   1001.9200000000000        1.9854691498118954E-028
   1001.9299999999999        2.1615985494711788E-028
   1001.9400000000001        2.3532072562147250E-028
   1001.9500000000000        2.5616427319210189E-028
   1001.9600000000000        2.7883685872872878E-028
   1001.9700000000000        3.0349744930470378E-028
   1001.9800000000000        3.3031869282028471E-028
   1001.9900000000000        3.5948808351935080E-028
   1002.0000000000000        3.9120922577103180E-028
   1002.0100000000000        4.2570320431241690E-028
   1002.0200000000000        4.6321006982472622E-028
   1002.0300000000000        5.0399044944666763E-028
   1002.0400000000000        5.4832729261933899E-028
   1002.0500000000000        5.9652776351249384E-028
   1002.0599999999999        6.4892529220657809E-028
   1002.0700000000001        7.0588179780576088E-028
   1002.0800000000000        7.6779009773345884E-028
   1002.0900000000000        8.3507651864461113E-028
   1002.1000000000000        9.0820372562984566E-028
   1002.1100000000000        9.8767378777476409E-028
   1002.1200000000000        1.0740314996010840E-027
   1002.1300000000000        1.1678679795158982E-027
   1002.1400000000000        1.2698245681200082E-027
   1002.1500000000000        1.3805970510892896E-027
   1002.1600000000000        1.5009402333575841E-027
   1002.1700000000000        1.6316728935056534E-027
   1002.1799999999999        1.7736831496119339E-027
   1002.1900000000001        1.9279342703631202E-027
   1002.2000000000000        2.0954709679544512E-027
   1002.2100000000000        2.2774262123116430E-027
   1002.2200000000000        2.4750286093068548E-027
   1002.2300000000000        2.6896103891615028E-027
   1002.2400000000000        2.9226160549277214E-027
   1002.2500000000000        3.1756117449871145E-027
   1002.2600000000000        3.4502953678602407E-027
   1002.2700000000000        3.7485075723247972E-027
   1002.2800000000000        4.0722436209207422E-027
   1002.2900000000000        4.4236662404039743E-027
   1002.3000000000000        4.8051195286325468E-027
   1002.3099999999999        5.2191440037593647E-027
   1002.3200000000001        5.6684928885131957E-027
   1002.3300000000000        6.1561497297571308E-027
   1002.3400000000000        6.6853474616640825E-027
   1002.3500000000000        7.2595890293419253E-027
   1002.3600000000000        7.8826696992820400E-027
   1002.3700000000000        8.5587011930010384E-027
   1002.3800000000000        9.2921377911808180E-027
   1002.3900000000000        1.0087804567370027E-026
   1002.4000000000000        1.0950927922996436E-026
   1002.4100000000000        1.1887168609130998E-026
   1002.4200000000000        1.2902657435209699E-026
   1002.4299999999999        1.4004033880848398E-026
   1002.4400000000001        1.5198487844079348E-026
   1002.4500000000000        1.6493804777768663E-026
   1002.4600000000000        1.7898414486249570E-026
   1002.4700000000000        1.9421443875271446E-026
   1002.4800000000000        2.1072773972077118E-026
   1002.4900000000000        2.2863101557193278E-026
   1002.5000000000000        2.4804005776618645E-026
   1002.5100000000000        2.6908020132208517E-026
   1002.5200000000000        2.9188710279434486E-026
   1002.5300000000000        3.1660758095555492E-026
   1002.5400000000000        3.4340052517684856E-026
   1002.5500000000000        3.7243787689571289E-026
   1002.5599999999999        4.0390568998257989E-026
   1002.5700000000001        4.3800527627498619E-026
   1002.5800000000000        4.7495444303703773E-026
   1002.5900000000000        5.1498882964047994E-026
   1002.6000000000000        5.5836335132106667E-026
   1002.6100000000000        6.0535375849271033E-026
   1002.6200000000000        6.5625832075684498E-026
   1002.6300000000000        7.1139964546099681E-026
   1002.6400000000000        7.7112664142941722E-026
   1002.6500000000000        8.3581663931698752E-026
   1002.6600000000000        9.0587768092970158E-026
   1002.6700000000000        9.8175099081599702E-026
   1002.6799999999999        1.0639136444677327E-025
   1002.6900000000001        1.1528814485846486E-025
   1002.7000000000000        1.2492120500485633E-025
   1002.7100000000000        1.3535082915665309E-025
   1002.7200000000000        1.4664218332967263E-025
   1002.7300000000000        1.5886570613029267E-025
   1002.7400000000000        1.7209753052732843E-025
   1002.7500000000000        1.8641993896803030E-025
   1002.7600000000000        2.0192185444237098E-025
   1002.7700000000000        2.1869937030065306E-025
   1002.7800000000000        2.3685632184563905E-025
   1002.7900000000000        2.5650490295286935E-025
   1002.8000000000000        2.7776633122317711E-025
   1002.8099999999999        3.0077156544053831E-025
   1002.8200000000001        3.2566207939842231E-025
   1002.8300000000000        3.5259069646726160E-025
   1002.8400000000000        3.8172248961694015E-025
   1002.8500000000000        4.1323575195870082E-025
   1002.8600000000000        4.4732304326847726E-025
   1002.8700000000000        4.8419231836484324E-025
   1002.8800000000000        5.2406814366499468E-025
   1002.8900000000000        5.6719300872438810E-025
   1002.9000000000000        6.1382874008383242E-025
   1002.9100000000000        6.6425802530554659E-025
   1002.9200000000000        7.1878605567896835E-025
   1002.9299999999999        7.7774229672135081E-025
   1002.9400000000001        8.4148239629158945E-025
   1002.9500000000000        9.1039024087498149E-025
   1002.9600000000000        9.8488017141227436E-025
   1002.9700000000000        1.0653993708806484E-024
   1002.9800000000000        1.1524304367839689E-024
   1002.9900000000000        1.2464941526874817E-024
   1003.0000000000000        1.3481524740043708E-024
   1003.0100000000000        1.4580117443873417E-024
   1003.0200000000000        1.5767261603101626E-024
   1003.0300000000000        1.7050015027477218E-024
   1003.0400000000000        1.8435991562842647E-024
   1003.0500000000000        1.9933404375070081E-024
   1003.0599999999999        2.1551112561817071E-024
   1003.0700000000001        2.3298671344712794E-024
   1003.0800000000000        2.5186386113350194E-024
   1003.0900000000000        2.7225370613203937E-024
   1003.1000000000000        2.9427609590706718E-024
   1003.1100000000000        3.1806026232829861E-024
   1003.1200000000000        3.4374554763248819E-024
   1003.1300000000000        3.7148218584304708E-024
   1003.1400000000000        4.0143214382940541E-024
   1003.1500000000000        4.3377002649888805E-024
   1003.1600000000000        4.6868405094786194E-024
   1003.1700000000000        5.0637709475722496E-024
   1003.1799999999999        5.4706782400194431E-024
   1003.1900000000001        5.9099190695756791E-024
   1003.2000000000000        6.3840331992589855E-024
   1003.2100000000000        6.8957575208803434E-024
   1003.2200000000000        7.4480411678499964E-024
   1003.2300000000000        8.0440617719079266E-024
   1003.2400000000000        8.6872429491910119E-024
   1003.2500000000000        9.3812731073765802E-024
   1003.2600000000000        1.0130125672390985E-023
   1003.2700000000000        1.0938080840410708E-023
   1003.2800000000000        1.1809748968653276E-023
   1003.2900000000000        1.2750095726778610E-023
   1003.3000000000000        1.3764469139658868E-023
   1003.3099999999999        1.4858628661843618E-023
   1003.3200000000001        1.6038776434336086E-023
   1003.3300000000000        1.7311590885200408E-023
   1003.3400000000000        1.8684262847612690E-023
   1003.3500000000000        2.0164534381142773E-023
   1003.3600000000000        2.1760740496080629E-023
   1003.3700000000000        2.3481853994879210E-023
   1003.3800000000000        2.5337533660449036E-023
   1003.3900000000000        2.7338176037722320E-023
   1003.4000000000000        2.9494971072789245E-023
   1003.4100000000000        3.1819961893075967E-023
   1003.4200000000000        3.4326109032570762E-023
   1003.4299999999999        3.7027359428102873E-023
   1003.4400000000001        3.9938720536288948E-023
   1003.4500000000000        4.3076339945766046E-023
   1003.4600000000000        4.6457590887089358E-023
   1003.4700000000000        5.0101164070470260E-023
   1003.4800000000000        5.4027166313712984E-023
   1003.4900000000000        5.8257226455244159E-023
   1003.5000000000000        6.2814609082946844E-023
   1003.5100000000000        6.7724336647562235E-023
   1003.5200000000000        7.3013320570223427E-023
   1003.5300000000000        7.8710501997375636E-023
   1003.5400000000000        8.4847002903059900E-023
   1003.5500000000000        9.1456288288629774E-023
   1003.5599999999999        9.8574340283511119E-023
   1003.5700000000001        1.0623984500810191E-022
   1003.5800000000000        1.1449439312059197E-022
   1003.5900000000000        1.2338269503710422E-022
   1003.6000000000000        1.3295281188172378E-022
   1003.6100000000000        1.4325640330126849E-022
   1003.6200000000000        1.5434899335833099E-022
   1003.6300000000000        1.6629025580278622E-022
   1003.6400000000000        1.7914432011407538E-022
   1003.6500000000000        1.9298009980502546E-022
   1003.6600000000000        2.0787164458345187E-022
   1003.6700000000000        2.2389851808052745E-022
   1003.6799999999999        2.4114620297546995E-022
   1003.6900000000001        2.5970653547531388E-022
   1003.7000000000000        2.7967817124493246E-022
   1003.7100000000000        3.0116708503447681E-022
   1003.7200000000000        3.2428710640159894E-022
   1003.7300000000000        3.4916049410188469E-022
   1003.7400000000000        3.7591855189671247E-022
