Gaussian broadening with full width at half max of   3.000   eV
        Energy(eV)              Intensity (arb. units)
   1000.0000000000000        1.7353752963555071E-048
   1000.0100000000000        1.9408128808276990E-048
   1000.0200000000000        2.1704368917093650E-048
   1000.0300000000000        2.4270789367098912E-048
   1000.0400000000000        2.7139002537994979E-048
   1000.0500000000000        3.0344298630419167E-048
   1000.0599999999999        3.3926071083656453E-048
   1000.0700000000001        3.7928290914080376E-048
   1000.0800000000000        4.2400035566186300E-048
   1000.0900000000000        4.7396078504484593E-048
   1000.1000000000000        5.2977546480004468E-048
   1000.1100000000000        5.9212652193701690E-048
   1000.1200000000000        6.6177510953788701E-048
   1000.1300000000000        7.3957050898722153E-048
   1000.1400000000000        8.2646027441615597E-048
   1000.1500000000000        9.2350153798068633E-048
   1000.1600000000000        1.0318736080117627E-047
   1000.1700000000000        1.1528920070026593E-047
   1000.1799999999999        1.2880241130021510E-047
   1000.1900000000001        1.4389065864527536E-047
   1000.2000000000000        1.6073647850413898E-047
   1000.2100000000000        1.7954343920097651E-047
   1000.2200000000000        2.0053855087156947E-047
   1000.2300000000000        2.2397494905450376E-047
   1000.2400000000000        2.5013488366485614E-047
   1000.2500000000000        2.7933304789132034E-047
   1000.2600000000000        3.1192028544034125E-047
   1000.2700000000000        3.4828771886718685E-047
   1000.2800000000000        3.8887134653227193E-047
   1000.2900000000000        4.3415716105454695E-047
   1000.3000000000000        4.8468684806207742E-047
   1000.3099999999999        5.4106413062878521E-047
   1000.3200000000001        6.0396183210940947E-047
   1000.3300000000000        6.7412973821655439E-047
   1000.3400000000000        7.5240334824177792E-047
   1000.3500000000000        8.3971361534364686E-047
   1000.3600000000000        9.3709778701401499E-047
   1000.3700000000000        1.0457114692203532E-046
   1000.3800000000000        1.1668420515045960E-046
   1000.3900000000000        1.3019236456221967E-046
   1000.4000000000000        1.4525537073056287E-046
   1000.4100000000000        1.6205115296176803E-046
   1000.4200000000000        1.8077788173311793E-046
   1000.4299999999999        2.0165625750606046E-046
   1000.4400000000001        2.2493205677361399E-046
   1000.4500000000000        2.5087896407105030E-046
   1000.4600000000000        2.7980172187309443E-046
   1000.4700000000000        3.1203963383203981E-046
   1000.4800000000000        3.4797046075076003E-046
   1000.4900000000000        3.8801475304253210E-046
   1000.5000000000000        4.3264066827483512E-046
   1000.5100000000000        4.8236932777056900E-046
   1000.5200000000000        5.3778077220701633E-046
   1000.5300000000000        5.9952058277601064E-046
   1000.5400000000000        6.6830724181797168E-046
   1000.5500000000000        7.4494031499876339E-046
   1000.5599999999999        8.3030954614842615E-046
   1000.5700000000001        9.2540496592332770E-046
   1000.5800000000000        1.0313281265865652E-045
   1000.5900000000000        1.1493045875848903E-045
   1000.6000000000000        1.2806977902732535E-045
   1000.6100000000000        1.4270244753860921E-045
   1000.6200000000000        1.5899718137021260E-045
   1000.6300000000000        1.7714164390696290E-045
   1000.6400000000000        1.9734455937087387E-045
   1000.6500000000000        2.1983806187236972E-045
   1000.6600000000000        2.4488030482762989E-045
   1000.6700000000000        2.7275835941720734E-045
   1000.6799999999999        3.0379143389857498E-045
   1000.6900000000001        3.3833444906444829E-045
   1000.7000000000000        3.7678200899246749E-045
   1000.7100000000000        4.1957281051538650E-045
   1000.7200000000000        4.6719453956620126E-045
   1000.7300000000000        5.2018930781916177E-045
   1000.7400000000000        5.7915968886121653E-045
   1000.7500000000000        6.4477541958353140E-045
   1000.7600000000000        7.1778083963270083E-045
   1000.7700000000000        7.9900314968453716E-045
   1000.7800000000000        8.8936157808344912E-045
   1000.7900000000000        9.8987755511760909E-045
   1000.8000000000000        1.1016860049779739E-044
   1000.8099999999999        1.2260478773888965E-044
   1000.8200000000001        1.3643640541260254E-044
   1000.8300000000000        1.5181907802766764E-044
   1000.8400000000000        1.6892567863596845E-044
   1000.8500000000000        1.8794822853388573E-044
   1000.8600000000000        2.0910000485241322E-044
   1000.8700000000000        2.3261787863645535E-044
   1000.8800000000000        2.5876490845578572E-044
   1000.8900000000000        2.8783321729254214E-044
   1000.9000000000000        3.2014718344280292E-044
   1000.9100000000000        3.5606697948255272E-044
   1000.9200000000000        3.9599249701630152E-044
   1000.9299999999999        4.4036769898644227E-044
   1000.9400000000001        4.8968544581624748E-044
   1000.9500000000000        5.4449284662967840E-044
   1000.9600000000000        6.0539719230832963E-044
   1000.9700000000000        6.7307253321910108E-044
   1000.9800000000000        7.4826697120786950E-044
   1000.9900000000000        8.3181074290379598E-044
   1001.0000000000000        9.2462517963778414E-044
   1001.0100000000000        1.0277326384119933E-043
   1001.0200000000000        1.1422675084619769E-043
   1001.0300000000000        1.2694884091320225E-043
   1001.0400000000000        1.4107917071497823E-043
   1001.0500000000000        1.5677264950646129E-043
   1001.0599999999999        1.7420111877432211E-043
   1001.0700000000001        1.9355519105497359E-043
   1001.0800000000000        2.1504628713261754E-043
   1001.0900000000000        2.3890889287991300E-043
   1001.1000000000000        2.6540305925875527E-043
   1001.1100000000000        2.9481717150809543E-043
   1001.1200000000000        3.2747101630737852E-043
   1001.1300000000000        3.6371917876369138E-043
   1001.1400000000000        4.0395480445096489E-043
   1001.1500000000000        4.4861376546686601E-043
   1001.1600000000000        4.9817927360310366E-043
   1001.1700000000000        5.5318698829080683E-043
   1001.1799999999999        6.1423067202785527E-043
   1001.1900000000001        6.8196845157201334E-043
   1001.2000000000000        7.5712974934020414E-043
   1001.2100000000000        8.4052295627887126E-043
   1001.2200000000000        9.3304392496678467E-043
   1001.2300000000000        1.0356853700495744E-042
   1001.2400000000000        1.1495472722722246E-042
   1001.2500000000000        1.2758483925238933E-042
   1001.2600000000000        1.4159390135147451E-042
   1001.2700000000000        1.5713150390797199E-042
   1001.2800000000000        1.7436335947744579E-042
   1001.2900000000000        1.9347302885248472E-042
   1001.3000000000000        2.1466383067630160E-042
   1001.3099999999999        2.3816095398936046E-042
   1001.3200000000001        2.6421379512644111E-042
   1001.3300000000000        2.9309854262383250E-042
   1001.3400000000000        3.2512103628093170E-042
   1001.3500000000000        3.6061992924538012E-042
   1001.3600000000000        3.9997018502142222E-042
   1001.3700000000000        4.4358694462824612E-042
   1001.3800000000000        4.9192980281677283E-042
   1001.3900000000000        5.4550753631345526E-042
   1001.4000000000000        6.0488333154193316E-042
   1001.4100000000000        6.7068056421848449E-042
   1001.4200000000000        7.4358918867515171E-042
   1001.4299999999999        8.2437280078610963E-042
   1001.4400000000001        9.1387644501767400E-042
   1001.4500000000000        1.0130352434457294E-041
   1001.4600000000000        1.1228839326920584E-041
   1001.4700000000000        1.2445674036159465E-041
   1001.4800000000000        1.3793523484723627E-041
   1001.4900000000000        1.5286401310800422E-041
   1001.5000000000000        1.6939810075188204E-041
   1001.5100000000000        1.8770898380759661E-041
   1001.5200000000000        2.0798634457171808E-041
   1001.5300000000000        2.3043997924110933E-041
   1001.5400000000000        2.5530191623336304E-041
   1001.5500000000000        2.8282875604936758E-041
   1001.5599999999999        3.1330425568349481E-041
   1001.5700000000001        3.4704218295893787E-041
   1001.5800000000000        3.8438946877732474E-041
   1001.5900000000000        4.2572968816173134E-041
   1001.6000000000000        4.7148690413480200E-041
   1001.6100000000000        5.2212991198757773E-041
   1001.6200000000000        5.7817692534449506E-041
   1001.6300000000000        6.4020074968384693E-041
   1001.6400000000000        7.0883449365650029E-041
   1001.6500000000000        7.8477787370786261E-041
   1001.6600000000000        8.6880417319355142E-041
   1001.6700000000000        9.6176792344490542E-041
   1001.6799999999999        1.0646133811414251E-040
   1001.6900000000001        1.1783838839507268E-040
   1001.7000000000000        1.3042321747611197E-040
   1001.7100000000000        1.4434317940820315E-040
   1001.7200000000000        1.5973896502990659E-040
   1001.7300000000000        1.7676598887016840E-040
   1001.7400000000000        1.9559591924918293E-040
   1001.7500000000000        2.1641836625534792E-040
   1001.7600000000000        2.3944274376963864E-040
   1001.7700000000000        2.6490032335270741E-040
   1001.7800000000000        2.9304649962019187E-040
   1001.7900000000000        3.2416328872410539E-040
   1001.8000000000000        3.5856208375156190E-040
   1001.8099999999999        3.9658669326617086E-040
   1001.8200000000001        4.3861669187500805E-040
   1001.8300000000000        4.8507111462454775E-040
   1001.8400000000000        5.3641253025753357E-040
   1001.8500000000000        5.9315153188647816E-040
   1001.8600000000000        6.5585168755270649E-040
   1001.8700000000000        7.2513499741680166E-040
   1001.8800000000000        8.0168790904605234E-040
   1001.8900000000000        8.8626794745223122E-040
   1001.9000000000000        9.7971102224142306E-040
   1001.9100000000000        1.0829394805147373E-039
   1001.9200000000000        1.1969709810653505E-039
   1001.9299999999999        1.3229282730110131E-039
   1001.9400000000001        1.4620499703559078E-039
   1001.9500000000000        1.6157024231487596E-039
   1001.9600000000000        1.7853927960381032E-039
   1001.9700000000000        1.9727834760749687E-039
   1001.9800000000000        2.1797079438780737E-039
   1001.9900000000000        2.4081882556679435E-039
   1002.0000000000000        2.6604542984423588E-039
   1002.0100000000000        2.9389649967877544E-039
   1002.0200000000000        3.2464316676490491E-039
   1002.0300000000000        3.5858437389795815E-039
   1002.0400000000000        3.9604970697304116E-039
   1002.0500000000000        4.3740251323074306E-039
   1002.0599999999999        4.8304333446376918E-039
   1002.0700000000001        5.3341368675716442E-039
   1002.0800000000000        5.8900022147097568E-039
   1002.0900000000000        6.5033930563711164E-039
   1002.1000000000000        7.1802206371199755E-039
   1002.1100000000000        7.9269992681089693E-039
   1002.1200000000000        8.7509074011180266E-039
   1002.1300000000000        9.6598548414494787E-039
   1002.1400000000000        1.0662556712013010E-038
   1002.1500000000000        1.1768614841538018E-038
   1002.1600000000000        1.2988607316401715E-038
   1002.1700000000000        1.4334187008644287E-038
   1002.1799999999999        1.5818189972988010E-038
   1002.1900000000001        1.7454754693803352E-038
   1002.2000000000000        1.9259453259564312E-038
   1002.2100000000000        2.1249435648927797E-038
   1002.2200000000000        2.3443588428495082E-038
   1002.2300000000000        2.5862709290919135E-038
   1002.2400000000000        2.8529699002092780E-038
   1002.2500000000000        3.1469772480435128E-038
   1002.2600000000000        3.4710690900442591E-038
   1002.2700000000000        3.8283016898338976E-038
   1002.2800000000000        4.2220395161355830E-038
   1002.2900000000000        4.6559860905741353E-038
   1002.3000000000000        5.1342178993810101E-038
   1002.3099999999999        5.6612216709453435E-038
   1002.3200000000001        6.2419353506754486E-038
   1002.3300000000000        6.8817931369682697E-038
   1002.3400000000000        7.5867749777437656E-038
   1002.3500000000000        8.3634609657233035E-038
   1002.3600000000000        9.2190911135883719E-038
   1002.3700000000000        1.0161631036871632E-037
   1002.3800000000000        1.1199844123863361E-037
   1002.3900000000000        1.2343370828151127E-037
   1002.4000000000000        1.3602815781182890E-037
   1002.4100000000000        1.4989843489985715E-037
   1002.4200000000000        1.6517283459414774E-037
   1002.4299999999999        1.8199245659721656E-037
   1002.4400000000001        2.0051247349476464E-037
   1002.4500000000000        2.2090352361533815E-037
   1002.4600000000000        2.4335324067388214E-037
   1002.4700000000000        2.6806793352000599E-037
   1002.4800000000000        2.9527443060665537E-037
   1002.4900000000000        3.2522210520145968E-037
   1002.5000000000000        3.5818509891035397E-037
   1002.5100000000000        3.9446476277677076E-037
   1002.5200000000000        4.3439233707555761E-037
   1002.5300000000000        4.7833189295379354E-037
   1002.5400000000000        5.2668356129787488E-037
   1002.5500000000000        5.7988707664594136E-037
   1002.5599999999999        6.3842566663669071E-037
   1002.5700000000001        7.0283032041325289E-037
   1002.5800000000000        7.7368447260057441E-037
   1002.5900000000000        8.5162914300030951E-037
   1002.6000000000000        9.3736857596541055E-037
   1002.6100000000000        1.0316764276501694E-036
   1002.6200000000000        1.1354025539242378E-036
   1002.6300000000000        1.2494804567893903E-036
   1002.6400000000000        1.3749354526591012E-036
   1002.6500000000000        1.5128936319070162E-036
   1002.6600000000000        1.6645916857075437E-036
   1002.6700000000000        1.8313876834351086E-036
   1002.6799999999999        2.0147728918151276E-036
   1002.6900000000001        2.2163847356983349E-036
   1002.7000000000000        2.4380210098056516E-036
   1002.7100000000000        2.6816554612297897E-036
   1002.7200000000000        2.9494548737635006E-036
   1002.7300000000000        3.2437977976416841E-036
   1002.7400000000000        3.5672950818414322E-036
   1002.7500000000000        3.9228123809834574E-036
   1002.7600000000000        4.3134948251574047E-036
   1002.7700000000000        4.7427940588008358E-036
   1002.7800000000000        5.2144978742393831E-036
   1002.7900000000000        5.7327626867975557E-036
   1002.8000000000000        6.3021491216855876E-036
   1002.8099999999999        6.9276610083398419E-036
   1002.8200000000001        7.6147881057606991E-036
   1002.8300000000000        8.3695529127880797E-036
   1002.8400000000000        9.1985619507214213E-036
   1002.8500000000000        1.0109061941818263E-035
   1002.8600000000000        1.1109001347269804E-035
   1002.8700000000000        1.2207097771589427E-035
   1002.8800000000000        1.3412911787949415E-035
   1002.8900000000000        1.4736927790954966E-035
   1002.9000000000000        1.6190642540135695E-035
   1002.9100000000000        1.7786662119496297E-035
   1002.9200000000000        1.9538808106284966E-035
   1002.9299999999999        2.1462233816231424E-035
   1002.9400000000001        2.3573551573505282E-035
   1002.9500000000000        2.5890972041906054E-035
   1002.9600000000000        2.8434456750957821E-035
   1002.9700000000000        3.1225885055275273E-035
   1002.9800000000000        3.4289236881709264E-035
   1002.9900000000000        3.7650792744213060E-035
   1003.0000000000000        4.1339352644079180E-035
   1003.0100000000000        4.5386475623365344E-035
   1003.0200000000000        4.9826741903372992E-035
   1003.0300000000000        5.4698039719123955E-035
   1003.0400000000000        6.0041879156368472E-035
   1003.0500000000000        6.5903735511161250E-035
   1003.0599999999999        7.2333424925142369E-035
   1003.0700000000001        7.9385515304219328E-035
   1003.0800000000000        8.7119775805535627E-035
   1003.0900000000000        9.5601668482518834E-035
   1003.1000000000000        1.0490288600592305E-034
   1003.1100000000000        1.1510193974268084E-034
   1003.1200000000000        1.2628480286688657E-034
   1003.1300000000000        1.3854561360789531E-034
   1003.1400000000000        1.5198744420964856E-034
   1003.1500000000000        1.6672314168748286E-034
   1003.1600000000000        1.8287624702722391E-034
   1003.1700000000000        2.0058200008090362E-034
   1003.1799999999999        2.1998843807815736E-034
   1003.1900000000001        2.4125759639790022E-034
   1003.2000000000000        2.6456682103408786E-034
   1003.2100000000000        2.9011020305713879E-034
   1003.2200000000000        3.1810014630512533E-034
   1003.2300000000000        3.4876908057299719E-034
   1003.2400000000000        3.8237133368203569E-034
   1003.2500000000000        4.1918517703333551E-034
   1003.2600000000000        4.5951506057865409E-034
   1003.2700000000000        5.0369405459230777E-034
   1003.2800000000000        5.5208651720833342E-034
   1003.2900000000000        6.0509100841035339E-034
   1003.3000000000000        6.6314347303992116E-034
   1003.3099999999999        7.2672071743610626E-034
   1003.3200000000001        7.9634420655128926E-034
   1003.3300000000000        8.7258421081371826E-034
   1003.3400000000000        9.5606433467395427E-034
   1003.3500000000000        1.0474664616319700E-033
   1003.3600000000000        1.1475361537143883E-033
   1003.3700000000000        1.2570885467831397E-033
   1003.3800000000000        1.3770147867954354E-033
   1003.3900000000000        1.5082890562023495E-033
   1003.4000000000000        1.6519762441035184E-033
   1003.4100000000000        1.8092403186021164E-033
   1003.4200000000000        1.9813534650600859E-033
   1003.4299999999999        2.1697060596784630E-033
   1003.4400000000001        2.3758175540638262E-033
   1003.4500000000000        2.6013483532137575E-033
   1003.4600000000000        2.8481127767956997E-033
   1003.4700000000000        3.1180932015588347E-033
   1003.4800000000000        3.4134554915627157E-033
   1003.4900000000000        3.7365658323958719E-033
   1003.5000000000000        4.0900090959572521E-033
   1003.5100000000000        4.4766088736740252E-033
   1003.5200000000000        4.8994493283302699E-033
   1003.5300000000000        5.3618990280702477E-033
   1003.5400000000000        5.8676369407109565E-033
   1003.5500000000000        6.4206807823552701E-033
   1003.5599999999999        7.0254179315485164E-033
   1003.5700000000001        7.6866391390059652E-033
   1003.5800000000000        8.4095752833066235E-033
   1003.5900000000000        9.1999374453317741E-033
   1003.6000000000000        1.0063960598136625E-032
   1003.6100000000000        1.1008451235498044E-032
   1003.6200000000000        1.2040839290829007E-032
   1003.6300000000000        1.3169234729311448E-032
   1003.6400000000000        1.4402489229920477E-032
   1003.6500000000000        1.5750263410810171E-032
   1003.6600000000000        1.7223100091535888E-032
   1003.6700000000000        1.8832504129094680E-032
   1003.6799999999999        2.0591029412063584E-032
   1003.6900000000001        2.2512373648568227E-032
   1003.7000000000000        2.4611481639557028E-032
   1003.7100000000000        2.6904657790103001E-032
   1003.7200000000000        2.9409688676744252E-032
   1003.7300000000000        3.2145976561436795E-032
   1003.7400000000000        3.5134684820279989E-032
