Gaussian broadening with full width at half max of   3.000   eV
        Energy(eV)              Intensity (arb. units)
   1000.0000000000000        1.2943446591147142E-041
   1000.0100000000000        1.4343582478947944E-041
   1000.0200000000000        1.5894196650376901E-041
   1000.0300000000000        1.7611355221775408E-041
   1000.0400000000000        1.9512828151924026E-041
   1000.0500000000000        2.1618268705173670E-041
   1000.0599999999999        2.3949411685765194E-041
   1000.0700000000001        2.6530292392861423E-041
   1000.0800000000000        2.9387488446591283E-041
   1000.0900000000000        3.2550386857621880E-041
   1000.1000000000000        3.6051478955957320E-041
   1000.1100000000000        3.9926686064893018E-041
   1000.1200000000000        4.4215719102130496E-041
   1000.1300000000000        4.8962475617222453E-041
   1000.1400000000000        5.4215478134802700E-041
   1000.1500000000000        6.0028358070103454E-041
   1000.1600000000000        6.6460389920699664E-041
   1000.1700000000000        7.3577080920464826E-041
   1000.1799999999999        8.1450821872671894E-041
   1000.1900000000001        9.0161605464312737E-041
   1000.2000000000000        9.9797819007335716E-041
   1000.2100000000000        1.1045711926442324E-040
   1000.2200000000000        1.2224739779523787E-040
   1000.2300000000000        1.3528784612340508E-040
   1000.2400000000000        1.4971013097079412E-040
   1000.2500000000000        1.6565969085030398E-040
   1000.2600000000000        1.8329716645817275E-040
   1000.2700000000000        2.0279997857258430E-040
   1000.2800000000000        2.2436406855925684E-040
   1000.2900000000000        2.4820581811899329E-040
   1000.3000000000000        2.7456416660141651E-040
   1000.3099999999999        3.0370294606837261E-040
   1000.3200000000001        3.3591345633763319E-040
   1000.3300000000000        3.7151730448710575E-040
   1000.3400000000000        4.1086953578716681E-040
   1000.3500000000000        4.5436208574339199E-040
   1000.3600000000000        5.0242758594723320E-040
   1000.3700000000000        5.5554355972788664E-040
   1000.3800000000000        6.1423704723545818E-040
   1000.3900000000000        6.7908970358406250E-040
   1000.4000000000000        7.5074341808283494E-040
   1000.4100000000000        8.2990650742144457E-040
   1000.4200000000000        9.1736054100069582E-040
   1000.4299999999999        1.0139678624530540E-039
   1000.4400000000001        1.1206798778390559E-039
   1000.4500000000000        1.2385461880788657E-039
   1000.4600000000000        1.3687246509919070E-039
   1000.4700000000000        1.5124924668393643E-039
   1000.4800000000000        1.6712583907221159E-039
   1000.4900000000000        1.8465761855161910E-039
   1000.5000000000000        2.0401594404171967E-039
   1000.5100000000000        2.2538978926788759E-039
   1000.5200000000000        2.4898754038850323E-039
   1000.5300000000000        2.7503897572149428E-039
   1000.5400000000000        3.0379744587803184E-039
   1000.5500000000000        3.3554227443782250E-039
   1000.5599999999999        3.7058140130747799E-039
   1000.5700000000001        4.0925429311001993E-039
   1000.5800000000000        4.5193514737387490E-039
   1000.5900000000000        4.9903641996286810E-039
   1000.6000000000000        5.5101270809867801E-039
   1000.6100000000000        6.0836502455779761E-039
   1000.6200000000000        6.7164550214713476E-039
   1000.6300000000000        7.4146257144458954E-039
   1000.6400000000000        8.1848665905179869E-039
   1000.6500000000000        9.0345645828619424E-039
   1000.6600000000000        9.9718582937922097E-039
   1000.6700000000000        1.1005713918927031E-038
   1000.6799999999999        1.2146008782633420E-038
   1000.6900000000001        1.3403623241937419E-038
   1000.7000000000000        1.4790541790703382E-038
   1000.7100000000000        1.6319964278253613E-038
   1000.7200000000000        1.8006428246158011E-038
   1000.7300000000000        1.9865943486315976E-038
   1000.7400000000000        2.1916140031691033E-038
   1000.7500000000000        2.4176430910305100E-038
   1000.7600000000000        2.6668191123831910E-038
   1000.7700000000000        2.9414954455659030E-038
   1000.7800000000000        3.2442629870745511E-038
   1000.7900000000000        3.5779739442453578E-038
   1000.8000000000000        3.9457679931114873E-038
   1000.8099999999999        4.3511010347190698E-038
   1000.8200000000001        4.7977768060165955E-038
   1000.8300000000000        5.2899816264378713E-038
   1000.8400000000000        5.8323225888773983E-038
   1000.8500000000000        6.4298695337097020E-038
   1000.8600000000000        7.0882011777299309E-038
   1000.8700000000000        7.8134558060376756E-038
   1000.8800000000000        8.6123869746719496E-038
   1000.8900000000000        9.4924247153922847E-038
   1000.9000000000000        1.0461742781808282E-037
   1000.9100000000000        1.1529332528468489E-037
   1000.9200000000000        1.2705084071989773E-037
   1000.9299999999999        1.3999875446312514E-037
   1000.9400000000001        1.5425670533249813E-037
   1000.9500000000000        1.6995626625093572E-037
   1000.9600000000000        1.8724212559382286E-037
   1000.9700000000000        2.0627338456314046E-037
   1000.9800000000000        2.2722498189553130E-037
   1000.9900000000000        2.5028925830090085E-037
   1001.0000000000000        2.7567767422645943E-037
   1001.0100000000000        3.0362269585281065E-037
   1001.0200000000000        3.3437986566615327E-037
   1001.0300000000000        3.6823007552530014E-037
   1001.0400000000000        4.0548206186781431E-037
   1001.0500000000000        4.4647514458922460E-037
   1001.0599999999999        4.9158223319994850E-037
   1001.0700000000001        5.4121312613257652E-037
   1001.0800000000000        5.9581813155202101E-037
   1001.0900000000000        6.5589204075310514E-037
   1001.1000000000000        7.2197848818922000E-037
   1001.1100000000000        7.9467473545744641E-037
   1001.1200000000000        8.7463692012530299E-037
   1001.1300000000000        9.6258581419958722E-037
   1001.1400000000000        1.0593131413180511E-036
   1001.1500000000000        1.1656885064326910E-036
   1001.1600000000000        1.2826669968844214E-036
   1001.1700000000000        1.4112975193852429E-036
   1001.1799999999999        1.5527319435724330E-036
   1001.1900000000001        1.7082351295288936E-036
   1001.2000000000000        1.8791959240153828E-036
   1001.2100000000000        2.0671392182558481E-036
   1001.2200000000000        2.2737391688731337E-036
   1001.2300000000000        2.5008336932820906E-036
   1001.2400000000000        2.7504403613668402E-036
   1001.2500000000000        3.0247738168304509E-036
   1001.2600000000000        3.3262648742376436E-036
   1001.2700000000000        3.6575814515926582E-036
   1001.2800000000000        4.0216515134109160E-036
   1001.2900000000000        4.4216882157793757E-036
   1001.3000000000000        4.8612174629834250E-036
   1001.3099999999999        5.3441081050553876E-036
   1001.3200000000001        5.8746050272336620E-036
   1001.3300000000000        6.4573654059248839E-036
   1001.3400000000000        7.0974984317490284E-036
   1001.3500000000000        7.8006088283037670E-036
   1001.3600000000000        8.5728445264025072E-036
   1001.3700000000000        9.4209488872001464E-036
   1001.3800000000000        1.0352317904596885E-035
   1001.3900000000000        1.1375062857670686E-035
   1001.4000000000000        1.2498078928011231E-035
   1001.4100000000000        1.3731120345050130E-035
   1001.4200000000000        1.5084882675175918E-035
   1001.4299999999999        1.6571092928006880E-035
   1001.4400000000001        1.8202608216139406E-035
   1001.4500000000000        1.9993523773293323E-035
   1001.4600000000000        2.1959291211298098E-035
   1001.4700000000000        2.4116847977748130E-035
   1001.4800000000000        2.6484759066452580E-035
   1001.4900000000000        2.9083372130322477E-035
   1001.5000000000000        3.1934987253418396E-035
   1001.5100000000000        3.5064042755659460E-035
   1001.5200000000000        3.8497318531257287E-035
   1001.5300000000000        4.2264158561245301E-035
   1001.5400000000000        4.6396714392577262E-035
   1001.5500000000000        5.0930211542366008E-035
   1001.5599999999999        5.5903240967168924E-035
   1001.5700000000001        6.1358077935275216E-035
   1001.5800000000000        6.7341030855632359E-035
   1001.5900000000000        7.3902822854289439E-035
   1001.6000000000000        8.1099009144598662E-035
   1001.6100000000000        8.8990433520629431E-035
   1001.6200000000000        9.7643727608741424E-035
   1001.6300000000000        1.0713185684747832E-034
   1001.6400000000000        1.1753471753117880E-034
   1001.6500000000000        1.2893978965137665E-034
   1001.6600000000000        1.4144285070498085E-034
   1001.6700000000000        1.5514875611278586E-034
   1001.6799999999999        1.7017229240959404E-034
   1001.6900000000001        1.8663910993216553E-034
   1001.7000000000000        2.0468674234592069E-034
   1001.7100000000000        2.2446572102734571E-034
   1001.7200000000000        2.4614079304522063E-034
   1001.7300000000000        2.6989225228979537E-034
   1001.7400000000000        2.9591739416659849E-034
   1001.7500000000000        3.2443210522356259E-034
   1001.7600000000000        3.5567260011620797E-034
   1001.7700000000000        3.8989731944578936E-034
   1001.7800000000000        4.2738900323720334E-034
   1001.7900000000000        4.6845695616661417E-034
   1001.8000000000000        5.1343952211280827E-034
   1001.8099999999999        5.6270678720225524E-034
   1001.8200000000001        6.1666353225795197E-034
   1001.8300000000000        6.7575245745350295E-034
   1001.8400000000000        7.4045770405311699E-034
   1001.8500000000000        8.1130870034820654E-034
   1001.8600000000000        8.8888436137585563E-034
   1001.8700000000000        9.7381767466515649E-034
   1001.8800000000000        1.0668007071741732E-033
   1001.8900000000000        1.1685900717524468E-033
   1001.9000000000000        1.2800128949212535E-033
   1001.9100000000000        1.4019733315286644E-033
   1001.9200000000000        1.5354596759384358E-033
   1001.9299999999999        1.6815521238785639E-033
   1001.9400000000001        1.8414312439425342E-033
   1001.9500000000000        2.0163872230216353E-033
   1001.9600000000000        2.2078299557551557E-033
   1001.9700000000000        2.4173000543030123E-033
   1001.9800000000000        2.6464808616503792E-033
   1001.9900000000000        2.8972115590621817E-033
   1002.0000000000000        3.1715014664260796E-033
   1002.0100000000000        3.4715456430469591E-033
   1002.0200000000000        3.7997419060625303E-033
   1002.0300000000000        4.1587093941067463E-033
   1002.0400000000000        4.5513088152299193E-033
   1002.0500000000000        4.9806645304679242E-033
   1002.0599999999999        5.4501886379360488E-033
   1002.0700000000001        5.9636072369916059E-033
   1002.0800000000000        6.5249890679312815E-033
   1002.0900000000000        7.1387767401744853E-033
   1002.1000000000000        7.8098207805728236E-033
   1002.1100000000000        8.5434167542377487E-033
   1002.1200000000000        9.3453457325146970E-033
   1002.1300000000000        1.0221918407090948E-032
   1002.1400000000000        1.1180023175662006E-032
   1002.1500000000000        1.2227178553354472E-032
   1002.1600000000000        1.3371590295380100E-032
   1002.1700000000000        1.4622213650413527E-032
   1002.1799999999999        1.5988821201185282E-032
   1002.1900000000001        1.7482076789006023E-032
   1002.2000000000000        1.9113616062555581E-032
   1002.2100000000000        2.0896134239166729E-032
   1002.2200000000000        2.2843481717914261E-032
   1002.2300000000000        2.4970768240591038E-032
   1002.2400000000000        2.7294476357359856E-032
   1002.2500000000000        2.9832585020350801E-032
   1002.2600000000000        3.2604704200577511E-032
   1002.2700000000000        3.5632221501934196E-032
   1002.2800000000000        3.8938461831201070E-032
   1002.2900000000000        4.2548861275531116E-032
   1002.3000000000000        4.6491156439443444E-032
   1002.3099999999999        5.0795590602601129E-032
   1002.3200000000001        5.5495138178363929E-032
   1002.3300000000000        6.0625749081673708E-032
   1002.3400000000000        6.6226614755968586E-032
   1002.3500000000000        7.2340457759079852E-032
   1002.3600000000000        7.9013846975085836E-032
   1002.3700000000000        8.6297540697409365E-032
   1002.3800000000000        9.4246860023635681E-032
   1002.3900000000000        1.0292209521398363E-031
   1002.4000000000000        1.1238894789510041E-031
   1002.4100000000000        1.2271901224021266E-031
   1002.4200000000000        1.3399029852738407E-031
   1002.4299999999999        1.4628780277159680E-031
   1002.4400000000001        1.5970412644549972E-031
   1002.4500000000000        1.7434015064893301E-031
   1002.4600000000000        1.9030576946640835E-031
   1002.4700000000000        2.0772068765426888E-031
   1002.4800000000000        2.2671528824727041E-031
   1002.4900000000000        2.4743157615148151E-031
   1002.5000000000000        2.7002420431272227E-031
   1002.5100000000000        2.9466158961509994E-031
   1002.5200000000000        3.2152712627779673E-031
   1002.5300000000000        3.5082050518386816E-031
   1002.5400000000000        3.8275914829689200E-031
   1002.5500000000000        4.1757976810449604E-031
   1002.5599999999999        4.5554006287737965E-031
   1002.5700000000001        4.9692055945419828E-031
   1002.5800000000000        5.4202661625863455E-031
   1002.5900000000000        5.9119060034846778E-031
   1002.6000000000000        6.4477425345493438E-031
   1002.6100000000000        7.0317126326111852E-031
   1002.6200000000000        7.6681005753944073E-031
   1002.6300000000000        8.3615684026937461E-031
   1002.6400000000000        9.1171889047903907E-031
   1002.6500000000000        9.9404814631438121E-031
   1002.6600000000000        1.0837450987470311E-030
   1002.6700000000000        1.1814630213988570E-030
   1002.6799999999999        1.2879125652025443E-030
   1002.6900000000001        1.4038667490461636E-030
   1002.7000000000000        1.5301663801718486E-030
   1002.7100000000000        1.6677259409779423E-030
   1002.7200000000000        1.8175399819158907E-030
   1002.7300000000000        1.9806900635669270E-030
   1002.7400000000000        2.1583522945805642E-030
   1002.7500000000000        2.3518055160950491E-030
   1002.7600000000000        2.5624401875112151E-030
   1002.7700000000000        2.7917680331008752E-030
   1002.7800000000000        3.0414325139200766E-030
   1002.7900000000000        3.3132201949037480E-030
   1002.8000000000000        3.6090730828697302E-030
   1002.8099999999999        3.9311020174996679E-030
   1002.8200000000001        4.2816012042290557E-030
   1002.8300000000000        4.6630639853816165E-030
   1002.8400000000000        5.0781999540103496E-030
   1002.8500000000000        5.5299535234765135E-030
   1002.8600000000000        6.0215240753618529E-030
   1002.8700000000000        6.5563878184292816E-030
   1002.8800000000000        7.1383215024189672E-030
   1002.8900000000000        7.7714281424115664E-030
   1002.9000000000000        8.4601649224258945E-030
   1002.9100000000000        9.2093734609136294E-030
   1002.9200000000000        1.0024312635955926E-029
   1002.9299999999999        1.0910694184354342E-029
   1002.9400000000001        1.1874721306545497E-029
   1002.9500000000000        1.2923130528367588E-029
   1002.9600000000000        1.4063237091689676E-029
   1002.9700000000000        1.5302984167964796E-029
   1002.9800000000000        1.6650996213425904E-029
   1002.9900000000000        1.8116636810663901E-029
   1003.0000000000000        1.9710071369797363E-029
   1003.0100000000000        2.1442335093125234E-029
   1003.0200000000000        2.3325406640360868E-029
   1003.0300000000000        2.5372287967431525E-029
   1003.0400000000000        2.7597090850643072E-029
   1003.0500000000000        3.0015130649960872E-029
   1003.0599999999999        3.2643027910518268E-029
   1003.0700000000001        3.5498818450522167E-029
   1003.0800000000000        3.8602072636495405E-029
   1003.0900000000000        4.1974024604746590E-029
   1003.1000000000000        4.5637712248749270E-029
   1003.1100000000000        4.9618128860105546E-029
   1003.1200000000000        5.3942387382412245E-029
   1003.1300000000000        5.8639898315669160E-029
   1003.1400000000000        6.3742562393231061E-029
   1003.1500000000000        6.9284979244487859E-029
   1003.1600000000000        7.5304673354966763E-029
   1003.1700000000000        8.1842338741932354E-029
   1003.1799999999999        8.8942103878535950E-029
   1003.1900000000001        9.6651818523754923E-029
   1003.2000000000000        1.0502336424885010E-028
   1003.2100000000000        1.1411299059771615E-028
   1003.2200000000000        1.2398167897177691E-028
   1003.2300000000000        1.3469553650198943E-028
   1003.2400000000000        1.4632622235099513E-028
   1003.2500000000000        1.5895140908591295E-028
   1003.2600000000000        1.7265528197463476E-028
   1003.2700000000000        1.8752907928792532E-028
   1003.2800000000000        2.0367167693721461E-028
   1003.2900000000000        2.2119022104526152E-028
   1003.3000000000000        2.4020081233531275E-028
   1003.3099999999999        2.6082924653574166E-028
   1003.3200000000001        2.8321181533332729E-028
   1003.3300000000000        3.0749617276912252E-028
   1003.3400000000000        3.3384227236736040E-028
   1003.3500000000000        3.6242338070109310E-028
   1003.3600000000000        3.9342717356233238E-028
   1003.3700000000000        4.2705692139052589E-028
   1003.3800000000000        4.6353277114482579E-028
   1003.3900000000000        5.0309313237685678E-028
   1003.4000000000000        5.4599617587730764E-028
   1003.4100000000000        5.9252145393454365E-028
   1003.4200000000000        6.4297165196027636E-028
   1003.4299999999999        6.9767448201095866E-028
   1003.4400000000001        7.5698472956760404E-028
   1003.4500000000000        8.2128646583116547E-028
   1003.4600000000000        8.9099543877415272E-028
   1003.4700000000000        9.6656165721025266E-028
   1003.4800000000000        1.0484721832937346E-027
   1003.4900000000000        1.1372541500605825E-027
   1003.5000000000000        1.2334780219366738E-027
   1003.5100000000000        1.3377611175480745E-027
   1003.5200000000000        1.4507714156888473E-027
   1003.5300000000000        1.5732316669395851E-027
   1003.5400000000000        1.7059238351956058E-027
   1003.5500000000000        1.8496938952650042E-027
   1003.5599999999999        2.0054570147468771E-027
   1003.5700000000001        2.1742031506089059E-027
   1003.5800000000000        2.3570030932489713E-027
   1003.5900000000000        2.5550149934272718E-027
   1003.6000000000000        2.7694914101488280E-027
   1003.6100000000000        3.0017869206141149E-027
   1003.6200000000000        3.2533663365174278E-027
   1003.6300000000000        3.5258135744334354E-027
   1003.6400000000000        3.8208412317415065E-027
   1003.6500000000000        4.1403009235355460E-027
   1003.6600000000000        4.4861944402706101E-027
   1003.6700000000000        4.8606857905302646E-027
   1003.6799999999999        5.2661141982879031E-027
   1003.6900000000001        5.7050081294090376E-027
   1003.7000000000000        6.1801004278862380E-027
   1003.7100000000000        6.6943446486260509E-027
   1003.7200000000000        7.2509326801260328E-027
   1003.7300000000000        7.8533137577612209E-027
   1003.7400000000000        8.5052149760485409E-027
